VD	ID	ID2	ID3	ID4	ID5	ID6	ID7	ID8
0.00E+00	-7.68E-07	-4.66E-07	-2.26E-07	-5.46E-08	6.87E-08	1.03E-07	1.57E-07	1.18E-06
5.00E-02	1.48E-05	4.58E-05	9.26E-05	1.45E-04	1.99E-04	2.52E-04	3.05E-04	3.56E-04
1.00E-01	2.34E-05	7.28E-05	1.59E-04	2.62E-04	3.69E-04	4.76E-04	5.80E-04	6.83E-04
1.50E-01	2.88E-05	8.71E-05	2.02E-04	3.52E-04	5.11E-04	6.72E-04	8.29E-04	9.84E-04
2.00E-01	3.26E-05	9.46E-05	2.26E-04	4.14E-04	6.23E-04	8.39E-04	1.05E-03	1.26E-03
2.50E-01	3.57E-05	9.93E-05	2.39E-04	4.54E-04	7.09E-04	9.77E-04	1.24E-03	1.50E-03
3.00E-01	3.82E-05	1.03E-04	2.46E-04	4.77E-04	7.70E-04	1.09E-03	1.40E-03	1.72E-03
3.50E-01	4.04E-05	1.06E-04	2.51E-04	4.90E-04	8.09E-04	1.17E-03	1.54E-03	1.91E-03
4.00E-01	4.24E-05	1.08E-04	2.54E-04	4.98E-04	8.33E-04	1.23E-03	1.65E-03	2.07E-03
4.50E-01	4.41E-05	1.11E-04	2.58E-04	5.04E-04	8.47E-04	1.27E-03	1.73E-03	2.20E-03
5.00E-01	4.57E-05	1.13E-04	2.61E-04	5.08E-04	8.56E-04	1.30E-03	1.80E-03	2.31E-03
5.50E-01	4.70E-05	1.14E-04	2.63E-04	5.12E-04	8.63E-04	1.32E-03	1.84E-03	2.40E-03
6.00E-01	4.83E-05	1.16E-04	2.66E-04	5.15E-04	8.68E-04	1.33E-03	1.87E-03	2.46E-03
6.50E-01	4.94E-05	1.17E-04	2.68E-04	5.18E-04	8.73E-04	1.34E-03	1.89E-03	2.51E-03
7.00E-01	5.06E-05	1.19E-04	2.69E-04	5.22E-04	8.78E-04	1.34E-03	1.90E-03	2.54E-03
7.50E-01	5.15E-05	1.20E-04	2.72E-04	5.24E-04	8.82E-04	1.35E-03	1.91E-03	2.56E-03
8.00E-01	5.25E-05	1.21E-04	2.73E-04	5.27E-04	8.86E-04	1.36E-03	1.92E-03	2.57E-03
8.50E-01	5.34E-05	1.23E-04	2.75E-04	5.29E-04	8.89E-04	1.36E-03	1.93E-03	2.59E-03
9.00E-01	5.40E-05	1.24E-04	2.76E-04	5.32E-04	8.93E-04	1.37E-03	1.93E-03	2.60E-03
9.50E-01	5.49E-05	1.25E-04	2.78E-04	5.34E-04	8.96E-04	1.37E-03	1.94E-03	2.61E-03
1.00E+00	5.55E-05	1.25E-04	2.79E-04	5.36E-04	8.99E-04	1.38E-03	1.95E-03	2.61E-03
1.05E+00	5.62E-05	1.26E-04	2.80E-04	5.38E-04	9.02E-04	1.38E-03	1.95E-03	2.62E-03
1.10E+00	5.69E-05	1.27E-04	2.82E-04	5.40E-04	9.04E-04	1.38E-03	1.96E-03	2.63E-03
1.15E+00	5.73E-05	1.28E-04	2.83E-04	5.41E-04	9.07E-04	1.39E-03	1.96E-03	2.64E-03
1.20E+00	5.79E-05	1.29E-04	2.84E-04	5.44E-04	9.10E-04	1.39E-03	1.97E-03	2.64E-03
1.25E+00	5.84E-05	1.29E-04	2.85E-04	5.45E-04	9.12E-04	1.39E-03	1.97E-03	2.65E-03
1.30E+00	5.89E-05	1.30E-04	2.86E-04	5.47E-04	9.15E-04	1.40E-03	1.98E-03	2.65E-03
1.35E+00	5.94E-05	1.31E-04	2.87E-04	5.48E-04	9.17E-04	1.40E-03	1.98E-03	2.66E-03
1.40E+00	5.96E-05	1.31E-04	2.88E-04	5.50E-04	9.19E-04	1.40E-03	1.98E-03	2.67E-03
1.45E+00	6.02E-05	1.32E-04	2.89E-04	5.51E-04	9.22E-04	1.41E-03	1.99E-03	2.67E-03
1.50E+00	6.05E-05	1.32E-04	2.90E-04	5.52E-04	9.23E-04	1.41E-03	1.99E-03	2.68E-03
1.55E+00	6.09E-05	1.33E-04	2.91E-04	5.54E-04	9.25E-04	1.41E-03	2.00E-03	2.68E-03
1.60E+00	6.13E-05	1.34E-04	2.92E-04	5.55E-04	9.27E-04	1.42E-03	2.00E-03	2.69E-03
1.65E+00	6.15E-05	1.34E-04	2.92E-04	5.56E-04	9.29E-04	1.42E-03	2.00E-03	2.69E-03
1.70E+00	6.19E-05	1.34E-04	2.93E-04	5.58E-04	9.31E-04	1.42E-03	2.01E-03	2.70E-03
1.75E+00	6.21E-05	1.35E-04	2.94E-04	5.58E-04	9.33E-04	1.42E-03	2.01E-03	2.70E-03
1.80E+00	6.24E-05	1.35E-04	2.94E-04	5.60E-04	9.35E-04	1.43E-03	2.01E-03	2.71E-03
1.85E+00	6.28E-05	1.36E-04	2.95E-04	5.61E-04	9.37E-04	1.43E-03	2.02E-03	2.71E-03
1.90E+00	6.29E-05	1.36E-04	2.96E-04	5.62E-04	9.38E-04	1.43E-03	2.02E-03	2.71E-03
1.95E+00	6.33E-05	1.37E-04	2.96E-04	5.63E-04	9.40E-04	1.43E-03	2.02E-03	2.72E-03
2.00E+00	6.35E-05	1.37E-04	2.97E-04	5.64E-04	9.41E-04	1.44E-03	2.03E-03	2.72E-03
2.05E+00	6.37E-05	1.37E-04	2.98E-04	5.65E-04	9.43E-04	1.44E-03	2.03E-03	2.73E-03
2.10E+00	6.40E-05	1.38E-04	2.99E-04	5.66E-04	9.45E-04	1.44E-03	2.03E-03	2.73E-03
2.15E+00	6.41E-05	1.38E-04	2.99E-04	5.67E-04	9.46E-04	1.44E-03	2.04E-03	2.73E-03
2.20E+00	6.44E-05	1.38E-04	3.00E-04	5.69E-04	9.48E-04	1.45E-03	2.04E-03	2.74E-03
2.25E+00	6.46E-05	1.39E-04	3.00E-04	5.69E-04	9.49E-04	1.45E-03	2.04E-03	2.74E-03
2.30E+00	6.48E-05	1.39E-04	3.01E-04	5.70E-04	9.51E-04	1.45E-03	2.05E-03	2.75E-03
2.35E+00	6.51E-05	1.39E-04	3.02E-04	5.71E-04	9.52E-04	1.45E-03	2.05E-03	2.75E-03
2.40E+00	6.51E-05	1.40E-04	3.02E-04	5.72E-04	9.54E-04	1.45E-03	2.05E-03	2.75E-03
2.45E+00	6.55E-05	1.40E-04	3.02E-04	5.73E-04	9.55E-04	1.46E-03	2.05E-03	2.76E-03
2.50E+00	6.56E-05	1.40E-04	3.03E-04	5.74E-04	9.57E-04	1.46E-03	2.06E-03	2.76E-03
2.55E+00	6.58E-05	1.40E-04	3.04E-04	5.75E-04	9.58E-04	1.46E-03	2.06E-03	2.76E-03
2.60E+00	6.60E-05	1.41E-04	3.04E-04	5.76E-04	9.59E-04	1.46E-03	2.06E-03	2.77E-03
2.65E+00	6.60E-05	1.41E-04	3.05E-04	5.77E-04	9.61E-04	1.46E-03	2.06E-03	2.77E-03
2.70E+00	6.64E-05	1.41E-04	3.05E-04	5.78E-04	9.62E-04	1.47E-03	2.07E-03	2.77E-03
2.75E+00	6.65E-05	1.42E-04	3.06E-04	5.78E-04	9.63E-04	1.47E-03	2.07E-03	2.78E-03
2.80E+00	6.67E-05	1.42E-04	3.06E-04	5.79E-04	9.65E-04	1.47E-03	2.07E-03	2.78E-03
2.85E+00	6.69E-05	1.42E-04	3.07E-04	5.80E-04	9.66E-04	1.47E-03	2.07E-03	2.78E-03
2.90E+00	6.69E-05	1.42E-04	3.07E-04	5.81E-04	9.67E-04	1.47E-03	2.08E-03	2.79E-03
2.95E+00	6.72E-05	1.43E-04	3.08E-04	5.82E-04	9.69E-04	1.48E-03	2.08E-03	2.79E-03
3.00E+00	6.73E-05	1.43E-04	3.08E-04	5.83E-04	9.70E-04	1.48E-03	2.08E-03	2.79E-03
3.05E+00	6.75E-05	1.43E-04	3.09E-04	5.84E-04	9.71E-04	1.48E-03	2.08E-03	2.80E-03
3.10E+00	6.77E-05	1.44E-04	3.09E-04	5.84E-04	9.72E-04	1.48E-03	2.09E-03	2.80E-03
3.15E+00	6.77E-05	1.44E-04	3.10E-04	5.85E-04	9.73E-04	1.48E-03	2.09E-03	2.80E-03
3.20E+00	6.80E-05	1.44E-04	3.10E-04	5.86E-04	9.75E-04	1.48E-03	2.09E-03	2.81E-03
3.25E+00	6.81E-05	1.44E-04	3.11E-04	5.87E-04	9.76E-04	1.49E-03	2.09E-03	2.81E-03
3.30E+00	6.83E-05	1.45E-04	3.11E-04	5.88E-04	9.77E-04	1.49E-03	2.10E-03	2.81E-03
3.35E+00	6.85E-05	1.45E-04	3.12E-04	5.88E-04	9.79E-04	1.49E-03	2.10E-03	2.81E-03
3.40E+00	6.85E-05	1.45E-04	3.12E-04	5.89E-04	9.80E-04	1.49E-03	2.10E-03	2.82E-03
3.45E+00	6.88E-05	1.45E-04	3.12E-04	5.90E-04	9.81E-04	1.49E-03	2.10E-03	2.82E-03
3.50E+00	6.88E-05	1.46E-04	3.13E-04	5.91E-04	9.82E-04	1.50E-03	2.11E-03	2.82E-03
3.55E+00	6.90E-05	1.46E-04	3.13E-04	5.92E-04	9.83E-04	1.50E-03	2.11E-03	2.83E-03
3.60E+00	6.92E-05	1.46E-04	3.14E-04	5.92E-04	9.85E-04	1.50E-03	2.11E-03	2.83E-03
3.65E+00	6.92E-05	1.46E-04	3.14E-04	5.93E-04	9.86E-04	1.50E-03	2.11E-03	2.83E-03
3.70E+00	6.95E-05	1.47E-04	3.15E-04	5.94E-04	9.87E-04	1.50E-03	2.11E-03	2.83E-03
3.75E+00	6.96E-05	1.47E-04	3.16E-04	5.95E-04	9.88E-04	1.50E-03	2.12E-03	2.84E-03
3.80E+00	6.97E-05	1.47E-04	3.16E-04	5.96E-04	9.90E-04	1.50E-03	2.12E-03	2.84E-03
3.85E+00	7.00E-05	1.48E-04	3.16E-04	5.96E-04	9.90E-04	1.51E-03	2.12E-03	2.84E-03
3.90E+00	6.99E-05	1.48E-04	3.17E-04	5.97E-04	9.91E-04	1.51E-03	2.12E-03	2.85E-03
3.95E+00	7.02E-05	1.48E-04	3.17E-04	5.98E-04	9.93E-04	1.51E-03	2.13E-03	2.85E-03
4.00E+00	7.03E-05	1.48E-04	3.18E-04	5.98E-04	9.94E-04	1.51E-03	2.13E-03	2.85E-03
4.05E+00	7.05E-05	1.48E-04	3.18E-04	5.99E-04	9.95E-04	1.51E-03	2.13E-03	2.85E-03
4.10E+00	7.07E-05	1.49E-04	3.18E-04	6.00E-04	9.97E-04	1.51E-03	2.13E-03	2.86E-03
4.15E+00	7.07E-05	1.49E-04	3.19E-04	6.01E-04	9.97E-04	1.52E-03	2.13E-03	2.86E-03
4.20E+00	7.09E-05	1.49E-04	3.19E-04	6.02E-04	9.99E-04	1.52E-03	2.14E-03	2.86E-03
4.25E+00	7.10E-05	1.49E-04	3.20E-04	6.02E-04	1.00E-03	1.52E-03	2.14E-03	2.87E-03
4.30E+00	7.12E-05	1.50E-04	3.20E-04	6.03E-04	1.00E-03	1.52E-03	2.14E-03	2.87E-03
4.35E+00	7.14E-05	1.50E-04	3.21E-04	6.04E-04	1.00E-03	1.52E-03	2.14E-03	2.87E-03
4.40E+00	7.14E-05	1.50E-04	3.21E-04	6.04E-04	1.00E-03	1.53E-03	2.15E-03	2.87E-03
4.45E+00	7.17E-05	1.51E-04	3.22E-04	6.05E-04	1.00E-03	1.53E-03	2.15E-03	2.88E-03
4.50E+00	7.18E-05	1.51E-04	3.22E-04	6.06E-04	1.01E-03	1.53E-03	2.15E-03	2.88E-03
4.55E+00	7.20E-05	1.51E-04	3.23E-04	6.07E-04	1.01E-03	1.53E-03	2.15E-03	2.88E-03
4.60E+00	7.22E-05	1.51E-04	3.23E-04	6.08E-04	1.01E-03	1.53E-03	2.15E-03	2.88E-03
4.65E+00	7.22E-05	1.51E-04	3.24E-04	6.08E-04	1.01E-03	1.53E-03	2.16E-03	2.89E-03
4.70E+00	7.25E-05	1.52E-04	3.24E-04	6.09E-04	1.01E-03	1.53E-03	2.16E-03	2.89E-03
4.75E+00	7.26E-05	1.52E-04	3.25E-04	6.10E-04	1.01E-03	1.54E-03	2.16E-03	2.89E-03
4.80E+00	7.28E-05	1.52E-04	3.25E-04	6.11E-04	1.01E-03	1.54E-03	2.16E-03	2.89E-03
4.85E+00	7.31E-05	1.53E-04	3.26E-04	6.12E-04	1.01E-03	1.54E-03	2.16E-03	2.90E-03
4.90E+00	7.31E-05	1.53E-04	3.26E-04	6.12E-04	1.01E-03	1.54E-03	2.17E-03	2.90E-03
4.95E+00	7.34E-05	1.53E-04	3.26E-04	6.13E-04	1.02E-03	1.54E-03	2.17E-03	2.90E-03
5.00E+00	7.36E-05	1.53E-04	3.27E-04	6.14E-04	1.02E-03	1.54E-03	2.17E-03	2.90E-03
